             f;      Abs(Zm);     Std(Abs);      Phi(Zm);     Std(Phi);       Re(Zm);       Im(Zm);     Time [s]
4.5000000e+004;    1575.5325;       0.0099;    -0.023254;     0.000012;    1575.1066;     -36.6342;   3464147706
3.9810717e+004;    1575.6582;       0.0037;    -0.021202;     0.000004;    1575.3040;     -33.4043;   3464147708
3.1622777e+004;    1576.0512;       0.0067;    -0.018138;     0.000003;    1575.7920;     -28.5844;   3464147710
2.5118864e+004;    1576.6667;       0.0020;    -0.015922;     0.000002;    1576.4668;     -25.1024;   3464147712
1.9952623e+004;    1577.4902;       0.0038;    -0.014381;     0.000000;    1577.3271;     -22.6857;   3464147713
1.5848932e+004;    1578.4323;       0.0048;    -0.013383;     0.000001;    1578.2910;     -21.1234;   3464147715
1.2589254e+004;    1579.5858;       0.0034;    -0.012872;     0.000001;    1579.4550;     -20.3322;   3464147717
1.0000000e+004;    1580.9523;       0.0066;    -0.012779;     0.000000;    1580.8232;     -20.2025;   3464147719
7.9432823e+003;    1582.5112;       0.0050;    -0.013045;     0.000001;    1582.3766;     -20.6434;   3464147721
6.3095734e+003;    1584.3473;       0.0025;    -0.013640;     0.000000;    1584.1999;     -21.6095;   3464147722
5.0118723e+003;    1586.4308;       0.0037;    -0.014534;     0.000002;    1586.2633;     -23.0559;   3464147724
3.9810717e+003;    1588.8766;       0.0045;    -0.015709;     0.000001;    1588.6805;     -24.9588;   3464147726
3.1622777e+003;    1591.6568;       0.0030;    -0.017161;     0.000000;    1591.4224;     -27.3138;   3464147728
2.5118864e+003;    1594.8520;       0.0014;    -0.018874;     0.000002;    1594.5680;     -30.0992;   3464147730
1.9952623e+003;    1598.5056;       0.0025;    -0.020858;     0.000003;    1598.1578;     -33.3397;   3464147731
1.5848932e+003;    1602.7317;       0.0044;    -0.023109;     0.000001;    1602.3037;     -37.0349;   3464147733
1.2589254e+003;    1607.4641;       0.0068;    -0.025639;     0.000001;    1606.9358;     -41.2100;   3464147735
1.0000000e+003;    1612.9131;       0.0051;    -0.028450;     0.000002;    1612.2604;     -45.8816;   3464147737
7.9432823e+002;    1619.1065;       0.0036;    -0.031540;     0.000001;    1618.3012;     -51.0582;   3464147739
6.3095734e+002;    1626.1786;       0.0039;    -0.034904;     0.000002;    1625.1881;     -56.7488;   3464147740
5.0118723e+002;    1634.2889;       0.0033;    -0.038522;     0.000002;    1633.0765;     -62.9413;   3464147742
3.9810717e+002;    1643.5254;       0.0038;    -0.042360;     0.000001;    1642.0511;     -69.5987;   3464147744
3.1622777e+002;    1654.1553;       0.0032;    -0.046354;     0.000001;    1652.3784;     -76.6500;   3464147746
2.5118864e+002;    1666.2258;       0.0063;    -0.050407;     0.000002;    1664.1094;     -83.9544;   3464147748
1.9952623e+002;    1679.8954;       0.0047;    -0.054387;     0.000002;    1677.4115;     -91.3195;   3464147749
1.5848932e+002;    1695.3621;       0.0042;    -0.058113;     0.000005;    1692.5001;     -98.4677;   3464147751
1.2589254e+002;    1712.5603;       0.0051;    -0.061364;     0.000005;    1709.3369;    -105.0240;   3464147753
1.0000000e+002;    1731.3730;       0.0067;    -0.063895;     0.000005;    1727.8400;    -110.5511;   3464147755
7.9432823e+001;    1751.7172;       0.0095;    -0.065464;     0.000002;    1747.9651;    -114.5923;   3464147757
6.3095734e+001;    1773.0415;       0.0021;    -0.065820;     0.000005;    1769.2023;    -116.6178;   3464147758
5.0118723e+001;    1794.6600;       0.0061;    -0.064866;     0.000002;    1790.8858;    -116.3306;   3464147760
3.9810717e+001;    1815.9433;       0.0085;    -0.062546;     0.000005;    1812.3925;    -113.5059;   3464147762
3.1622777e+001;    1836.1234;       0.0093;    -0.059015;     0.000001;    1832.9270;    -108.2956;   3464147764
2.5118864e+001;    1854.4377;       0.0014;    -0.054508;     0.000002;    1851.6835;    -101.0314;   3464147766
1.9952623e+001;    1870.6061;       0.0025;    -0.049352;     0.000001;    1868.3285;     -92.2805;   3464147768
1.5848932e+001;    1884.3143;       0.0050;    -0.043891;     0.000003;    1882.4996;     -82.6776;   3464147770
1.2589254e+001;    1895.6714;       0.0020;    -0.038435;     0.000001;    1894.2714;     -72.8431;   3464147772
1.0000000e+001;    1904.8180;       0.0066;    -0.033212;     0.000001;    1903.7676;     -63.2519;   3464147774
7.9432820e+000;    1912.0432;       0.0063;    -0.028400;     0.000001;    1911.2721;     -54.2945;   3464147776
6.3095730e+000;    1917.6495;       0.0100;    -0.024068;     0.000003;    1917.0940;     -46.1500;   3464147778
5.0118720e+000;    1922.0573;       0.0004;    -0.020258;     0.000004;    1921.6630;     -38.9336;   3464147780
3.9810720e+000;    1925.4552;       0.0077;    -0.016954;     0.000001;    1925.1785;     -32.6432;   3464147783
3.1622780e+000;    1928.0388;       0.0060;    -0.014128;     0.000002;    1927.8464;     -27.2386;   3464147786
2.5118860e+000;    1930.0730;       0.0073;    -0.011732;     0.000002;    1929.9402;     -22.6428;   3464147789
1.9952620e+000;    1931.6421;       0.0031;    -0.009714;     0.000002;    1931.5510;     -18.7640;   3464147792
1.5848930e+000;    1932.8451;       0.0024;    -0.008026;     0.000004;    1932.7829;     -15.5131;   3464147796
1.2589250e+000;    1933.7974;       0.0053;    -0.006622;     0.000000;    1933.7550;     -12.8053;   3464147800
1.0000000e+000;    1934.5299;       0.0049;    -0.005452;     0.000001;    1934.5012;     -10.5472;   3464147805
7.9432800e-001;    1935.1286;       0.0132;    -0.004488;     0.000002;    1935.1091;      -8.6843;   3464147811
5.0118700e-001;    1935.9316;       0.0084;    -0.003030;     0.000003;    1935.9227;      -5.8664;   3464147818
3.1622800e-001;    1936.5097;       0.0070;    -0.002050;     0.000002;    1936.5056;      -3.9706;   3464147830
1.9952600e-001;    1936.9603;       0.0226;    -0.001386;     0.000004;    1936.9585;      -2.6847;   3464147847
1.2589300e-001;    1937.3655;       0.0625;    -0.000947;     0.000001;    1937.3646;      -1.8351;   3464147872
7.9433000e-002;    1937.8336;       0.0877;    -0.000639;     0.000005;    1937.8332;      -1.2390;   3464147915
5.0119000e-002;    1938.5801;       0.1293;    -0.000460;     0.000001;    1938.5799;      -0.8913;   3464147976
3.1623000e-002;    1939.5022;       0.1884;    -0.000328;     0.000002;    1939.5021;      -0.6371;   3464148075
1.9953000e-002;    1940.8215;       0.2737;    -0.000211;     0.000002;    1940.8214;      -0.4104;   3464148228
1.2589000e-002;    1942.2753;       0.2528;    -0.000158;     0.000004;    1942.2753;      -0.3074;   3464148471
6.3100000e-003;    1943.1469;       0.0470;    -0.000118;     0.000003;    1943.1469;      -0.2296;   3464148950
2.5120000e-003;    1942.2038;       0.5162;    -0.000111;     0.000010;    1942.2038;      -0.2160;   3464150147
